Covesion Ltd.
MSHG2600-1.0-xx Phase matching data v1.0
Disclaimer: Please note these are calculated values only and actual values may vary.

Temperature,34.00μm,34.80μm,35.50μm,35.80μm,35.97μm,,Temperature,34.00μm,34.80μm,35.50μm,35.80μm,35.97μm
30,2261.632373333,2349.8859906197,2460.0434207916,2533.4064865112,2600.3332519531,,200,3172.58076787,2982.1185541153,,,
30.68,2261.9095349312,2350.2436184883,2460.5941677093,2534.2304611206,2601.7614746094,,199.32,3173.2116878033,2983.0779695511,,,
31.36,2262.1866965294,2350.601246357,2461.1449146271,2535.0601577759,2603.2116699219,,198.64,3173.8426077366,2984.0304327011,,,
32.04,2262.4638581276,2350.9678149223,2461.7028141022,2535.8955764771,2604.6911621094,,197.96,3174.4735276699,2984.9828958511,,,
32.72,2262.7410197258,2351.325442791,2462.2607135773,2536.74243927,2606.1926269531,,197.28,3175.1044476032,2985.9353590012,,,
33.4,2263.018181324,2351.6920113563,2462.8186130524,2537.589302063,2607.7233886719,,196.6,3175.7301533222,2986.8739175797,,,
34.08,2263.2953429222,2352.049639225,2463.3836650848,2538.4418869019,2609.2761230469,,195.92,3176.3558590412,2987.8194284439,,,
34.76,2263.5814452171,2352.4162077904,2463.9487171173,2539.3001937866,2610.8654785156,,195.24,3176.9815647602,2988.7510347366,,,
35.44,2263.8586068153,2352.7827763557,2464.5209217072,2540.1699447632,2612.4914550781,,194.56,3177.6020562649,2989.6826410294,,,
36.12,2264.1357684135,2353.1493449211,2465.0859737396,2541.0396957397,2614.1394042969,,193.88,3178.2225477696,2990.6142473221,,,
36.8,2264.4218707085,2353.5159134865,2465.6581783295,2541.9208908081,2615.8322143555,,193.2,3178.8430392742,2991.538901329,,,
37.48,2264.6990323067,2353.8824820518,2466.2375354767,2542.8020858765,2617.5570678711,,192.52,3179.4635307789,2992.4566030502,,,
38.16,2264.9851346016,2354.2579913139,2466.8168926239,2543.6947250366,2619.3258666992,,191.84,3180.0788080692,2993.3743047714,,,
38.84,2265.2712368965,2354.6245598793,2467.3962497711,2544.5988082886,2621.1331176758,,191.16,3180.6940853596,2994.2850542069,,,
39.52,2265.5573391914,2355.0000691414,2467.9756069183,2545.5028915405,2622.9898071289,,190.48,3181.3093626499,2995.1958036423,,,
40.2,2265.8434414864,2355.3755784035,2468.5621166229,2546.4126968384,2624.8904418945,,189.8,3181.9246399403,2996.0996007919,,,
40.88,2266.1206030846,2355.7510876656,2469.1486263275,2547.333946228,2626.8460083008,,189.12,3182.5347030163,2997.0033979416,,,
41.56,2266.4156460762,2356.1265969276,2469.7422885895,2548.2609176636,2628.8619995117,,188.44,3183.1447660923,2997.9002428055,,,
42.24,2266.7017483711,2356.5021061897,2470.3359508514,2549.1993331909,2630.9329223633,,187.76,3183.7548291683,2998.7970876694,,,
42.92,2266.987850666,2356.8776154518,2470.9296131134,2550.1434707642,2633.0752563477,,187.08,3184.3648922443,2999.6869802475,,,
43.6,2267.273952961,2357.2531247139,2471.5304279327,2551.0933303833,2635.2890014648,,186.4,3184.969741106,3000.5768728256,,,
44.28,2267.5600552559,2357.6375746727,2472.1312427521,2552.0489120483,2637.586517334,,185.72,3185.5745899677,3001.459813118,,,
44.96,2267.8550982475,2358.0220246315,2472.7320575714,2553.0159378052,2639.9760437012,,185.04,3186.1794388294,3002.3358011246,,,
45.64,2268.1412005424,2358.3975338936,2473.3400249481,2553.9886856079,2642.4562072754,,184.36,3186.7842876911,3003.2187414169,,,
46.32,2268.4362435341,2358.7819838524,2473.9479923248,2554.9728775024,2645.059967041,,183.68,3187.3839223385,3004.0877771378,,,
47,2268.7312865257,2359.1664338112,2474.5631122589,2555.9627914429,2647.787322998,,183,3187.9835569859,3004.9568128586,,,
47.68,2269.0173888206,2359.55088377,2475.178232193,2556.9641494751,2650.6712341309,,182.32,3188.5831916332,3005.8258485794,,,
48.36,2269.3124318123,2359.9442744255,2475.7933521271,2557.9712295532,2653.7281799316,,181.64,3189.1776120663,3006.6879320145,,,
49.04,2269.6074748039,2360.3287243843,2476.4156246185,2558.9897537231,2656.9911193848,,180.96,3189.7772467136,3007.5500154495,,,
49.72,2269.9025177956,2360.7131743431,2477.03789711,2560.0197219849,2660.525970459,,180.28,3190.3716671467,3008.4051465988,,,
50.4,2270.1975607872,2361.1065649986,2477.6673221588,2561.0554122925,2664.390411377,,179.6,3190.9608733654,3009.2602777481,,,
51.08,2270.4926037788,2361.4999556541,2478.2967472076,2562.1025466919,2668.699798584,,178.92,3191.5552937985,3010.1154088974,,,
51.76,2270.7965874672,2361.8933463097,2478.9261722565,2563.1554031372,2673.6518859863,,178.24,3192.1445000172,3010.9635877609,,,
52.44,2271.0916304588,2362.2867369652,2479.5627498627,2564.2197036743,2679.6586608887,,177.56,3192.7337062359,3011.8048143387,,,
53.12,2271.3866734505,2362.6801276207,2480.1993274689,2565.3011703491,2687.9231262207,,176.88,3193.3229124546,3012.6460409164,,,
53.8,2271.6906571388,2363.0735182762,2480.8430576324,2566.3883590698,2700,,176.2,3193.9121186733,3013.4872674942,,,
54.48,2271.9857001305,2363.4669089317,2481.486787796,2567.4812698364,,,175.52,3194.4961106777,3014.3215417862,,,
55.16,2272.2896838188,2363.869240284,2482.1305179596,2568.5913467407,,,174.84,3195.0801026821,3015.1488637924,,,
55.84,2272.5936675072,2364.2715716362,2482.7814006805,2569.7128677368,,,174.16,3195.6640946865,3015.9831380844,,,
56.52,2272.8976511955,2364.6649622917,2483.4322834015,2570.8458328247,,,173.48,3196.2480866909,3016.8104600906,,,
57.2,2273.1926941872,2365.0672936439,2484.0903186798,2571.9902420044,,,172.8,3196.826864481,3017.6308298111,,,
57.88,2273.4966778755,2365.4696249962,2484.7483539581,2573.1460952759,,,172.12,3197.405642271,3018.4511995316,,,
58.56,2273.8006615639,2365.8719563484,2485.4135417938,2574.3133926392,,,171.44,3197.9844200611,3019.2646169663,,,
59.24,2274.1135859489,2366.2832283974,2486.0787296295,2575.4921340942,,,170.76,3198.5631978512,3020.0849866867,,,
59.92,2274.4175696373,2366.6855597496,2486.7439174652,2576.688041687,,,170.08,3199.1367614269,3020.8914518356,,,
60.6,2274.7215533256,2367.0968317986,2487.4162578583,2577.8982543945,,,169.4,3199.7103250027,3021.7048692703,,,
61.28,2275.025537014,2367.4991631508,2488.0957508087,2579.1159057617,,,168.72,3200.2838885784,3022.5043821335,,,
61.96,2275.3384613991,2367.9104351997,2488.7752437592,2580.3610229492,,,168.04,3200.8574521542,3023.3108472824,,,
62.64,2275.6424450874,2368.3217072487,2489.4547367096,2581.6061401367,,,167.36,3201.4258015156,3024.1103601456,,,
63.32,2275.9553694725,2368.7329792976,2490.1413822174,2582.8787231445,,,166.68,3201.994150877,3024.9098730087,,,
64,2276.2682938576,2369.1531920433,2490.8280277252,2584.1604614258,,,166,3202.5625002384,3025.7024335861,,,
64.68,2276.5812182426,2369.5644640923,2491.5218257904,2585.4605102539,,,165.32,3203.1308495998,3026.4949941635,,,
65.36,2276.885201931,2369.9757361412,2492.2156238556,2586.7788696289,,,164.64,3203.6991989613,3027.2806024551,,,
66.04,2277.1981263161,2370.3959488869,2492.9165744781,2588.1063842773,,,163.96,3204.2623341084,3028.0731630325,,,
66.72,2277.5110507011,2370.8161616325,2493.6175251007,2589.4613647461,,,163.28,3204.8254692555,3028.8518190384,,,
67.4,2277.8329157829,2371.2363743782,2494.3256282806,2590.8346557617,,,162.6,3205.3886044025,3029.63742733,,,
68.08,2278.145840168,2371.6565871239,2495.0337314606,2592.2262573242,,,161.92,3205.9517395496,3030.4160833359,,,
68.76,2278.4587645531,2372.0767998695,2495.7489871979,2593.6361694336,,,161.24,3206.5096604824,3031.187787056,,,
69.44,2278.7716889381,2372.4970126152,2496.4713954926,2595.0643920898,,,160.56,3207.0675814152,3031.9594907761,,,
70.12,2279.0935540199,2372.9261660576,2497.1866512299,2596.5200805664,,,159.88,3207.625502348,3032.7311944962,,,
70.8,2279.406478405,2373.3463788032,2497.9162120819,2597.9940795898,,,159.2,3208.1834232807,3033.5028982163,2702.624206543,,
71.48,2279.7283434868,2373.7755322456,2498.645772934,2599.4955444336,,,158.52,3208.7361299992,3034.2676496506,2734.2593383789,,
72.16,2280.0502085686,2374.204685688,2499.375333786,2601.0217285156,,,157.84,3209.2888367176,3035.0254487991,2742.0761108398,,
72.84,2280.3720736504,2374.6338391304,2500.1120471954,2602.5744628906,,,157.16,3209.8415434361,3035.7902002335,2748.2559204102,,
73.52,2280.6849980354,2375.0629925728,2500.8559131622,2604.1491699219,,,156.48,3210.3942501545,3036.547999382,2753.5339355469,,
74.2,2281.0068631172,2375.5010867119,2501.599779129,2605.7531738281,,,155.8,3210.9469568729,3037.2988462448,2758.2141113281,,
74.88,2281.328728199,2375.9302401543,2502.3436450958,2607.3864746094,,,155.12,3211.4944493771,3038.0566453934,2762.4621582031,,
75.56,2281.6595339775,2376.3683342934,2503.1018161774,2609.0563964844,,,154.44,3212.0419418812,3038.8074922562,2766.3870239258,,
76.24,2281.9813990593,2376.7974877357,2503.8528347015,2610.7556152344,,,153.76,3212.5894343853,3039.5513868332,2770.0454711914,,
76.92,2282.3032641411,2377.2355818748,2504.6181583405,2612.4914550781,,,153.08,3213.1369268894,3040.302233696,2773.4896850586,,
77.6,2282.6340699196,2377.6736760139,2505.3834819794,2614.2639160156,,,152.4,3213.6792051792,3041.0391759872,2776.7526245117,,
78.28,2282.9559350014,2378.1207108498,2506.1488056183,2616.0684204102,,,151.72,3214.221483469,3041.7830705643,2779.856262207,,
78.96,2283.2867407799,2378.5588049889,2506.9284343719,2617.9196166992,,,151.04,3214.7637617588,3042.5200128555,2782.8280639648,,
79.64,2283.6086058617,2378.996899128,2507.7009105682,2619.8147583008,,,150.36,3215.3060400486,3043.2569551468,2785.6735229492,,
80.32,2283.9394116402,2379.4439339638,2508.4876918793,2621.7593383789,,,149.68,3215.8483183384,3043.9938974381,2788.4187316895,,
81,2284.2702174187,2379.8909687996,2509.2744731903,2623.7478637695,,,149,3216.3853824139,3044.7238874435,2791.0719299316,,
81.68,2284.6010231972,2380.3380036354,2510.0612545013,2625.7968139648,,,148.32,3216.9224464893,3045.453877449,2793.6262512207,,
82.36,2284.9318289757,2380.7859325409,2510.8623409271,2627.9006958008,,,147.64,3217.4595105648,3046.1769151688,2796.114654541,,
83.04,2285.2626347542,2381.229391098,2511.6634273529,2630.0704956055,,,146.96,3217.9965746403,3046.8999528885,2798.5289001465,,
83.72,2285.5934405327,2381.6800022125,2512.4645137787,2632.3062133789,,,146.28,3218.5284245014,3047.6229906082,2800.8689880371,,
84.4,2285.9242463112,2382.1377658844,2513.2799053192,2634.6188354492,,,145.6,3219.0654885769,3048.3460283279,2803.1596374512,,
85.08,2286.2639927864,2382.5883769989,2514.0881443024,2637.0138549805,,,144.92,3219.597338438,3049.0621137619,2805.3843688965,,
85.76,2286.5947985649,2383.0389881134,2514.9106884003,2639.5063781738,,,144.24,3220.1291882992,3049.7781991959,2807.5596618652,,
86.44,2286.9345450401,2383.4967517853,2515.7332324982,2642.0936584473,,,143.56,3220.655823946,3050.4873323441,2809.6855163574,,
87.12,2287.2653508186,2383.9545154572,2516.5629291534,2644.8045349121,,,142.88,3221.1876738071,3051.1964654923,2811.7701721191,,
87.8,2287.6050972938,2384.412279129,2517.3997783661,2647.6390075684,,,142.2,3221.714309454,3051.9055986404,2813.8053894043,,
88.48,2287.9448437691,2384.8771953583,2518.2366275787,2650.6300354004,,,141.52,3222.2409451008,3052.6147317886,2815.799407959,,
89.16,2288.2845902443,2385.3349590301,2519.0877819061,2653.8023376465,,,140.84,3222.7675807476,3053.3169126511,2817.7604675293,,
89.84,2288.6243367195,2385.7998752594,2519.9317836761,2657.188873291,,,140.16,3223.2890021801,3054.0190935135,2819.6803283691,,
90.52,2288.9640831947,2386.2647914886,2520.7900905609,2660.8390808105,,,139.48,3223.8104236126,3054.7212743759,2821.5682601929,,
91.2,2289.3038296699,2386.7297077179,2521.6534042358,2664.8188781738,,,138.8,3224.3370592594,3055.4165029526,2823.422203064,,
91.88,2289.6435761452,2387.1946239471,2522.5174331665,2669.2436218262,,,138.12,3224.8532664776,3056.1117315292,2825.2452468872,,
92.56,2289.9922633171,2387.6595401764,2523.392906189,2674.2863464355,,,137.44,3225.3746879101,3056.8069601059,2827.0435714722,,
93.24,2290.3320097923,2388.131608963,2524.2683792114,2680.3096008301,,,136.76,3225.8961093426,3057.5021886826,2828.8048171997,,
93.92,2290.6806969643,2388.6036777496,2525.1495742798,2688.2939147949,,,136.08,3226.4123165607,3058.1904649735,2830.541343689,,
94.6,2291.0204434395,2389.0757465363,2526.0422134399,2700,,,135.4,3226.9285237789,3058.8787412643,2832.2593307495,,
95.28,2291.3691306114,2389.5478153229,2526.9348526001,,,,134.72,3227.4447309971,3059.5600652695,2833.9402389526,,
95.96,2291.7178177834,2390.0270366669,2527.8389358521,,,,134.04,3227.9609382153,3060.2413892746,2835.6087875366,,
96.64,2292.0665049553,2390.5062580109,2528.743019104,,,,133.36,3228.4719312191,3060.9227132797,2837.2464370728,,
97.32,2292.4151921272,2390.9783267975,2529.6585464478,,,,132.68,3228.982924223,3061.6040372849,2838.8655471802,,
98,2292.7638792992,2391.4647006988,2530.5797958374,,,,132,3229.4939172268,3062.2792780399,2840.4599380493,,
98.68,2293.1125664711,2391.9439220428,2531.5010452271,,,,131.32,3230.0049102306,3062.9571259022,2842.0357894897,,
99.36,2293.461253643,2392.4231433868,2532.4337387085,,,,130.64,3230.5159032345,3063.6297595501,2843.5931015015,,
100.04,2293.8188815117,2392.9095172882,2533.3721542358,,,,129.96,3231.021682024,3064.2971789837,2845.1318740845,,
100.72,2294.1675686836,2393.3958911896,2534.322013855,,,,129.28,3231.5326750279,3064.9698126316,2846.6459274292,,
101.4,2294.5251965523,2393.8822650909,2535.2718734741,,,,128.6,3232.0384538174,3065.6372320652,2848.1476211548,,
102.08,2294.8738837242,2394.3757915497,2536.2331771851,,,,127.92,3232.5390183926,3066.2994372845,2849.6307754517,,
102.76,2295.2315115929,2394.862165451,2537.2002029419,,,,127.24,3233.0434936285,3066.9616425037,2851.1015701294,,
103.44,2295.5891394615,2395.3556919098,2538.1729507446,,,,126.56,3233.5440582037,3067.623847723,2852.5476455688,,
104.12,2295.9467673302,2395.8492183685,2539.1514205933,,,,125.88,3234.0524441004,3068.280838728,2853.9813613892,,
104.8,2296.3043951988,2396.3427448273,2540.1413345337,,,,125.2,3234.5530086756,3068.9378297329,2855.4027175903,,
105.48,2296.6620230675,2396.836271286,2541.13697052,,,,124.52,3235.0457519293,3069.5948207378,2856.8055343628,,
106.16,2297.0196509361,2397.3369503021,2542.1383285522,,,,123.84,3235.5463165045,3070.2465975285,2858.1959915161,,
106.84,2297.3772788048,2397.8376293182,2543.1511306763,,,,123.16,3236.0468810797,3070.8983743191,2859.5740890503,,
107.52,2297.7438473701,2398.3383083343,2544.1696548462,,,,122.48,3236.5396243334,3071.5501511097,2860.9336471558,,
108.2,2298.1014752388,2398.8389873505,2545.1996231079,,,,121.8,3237.0401889086,3072.196713686,2862.2808456421,,
108.88,2298.4680438042,2399.3468189239,2546.2295913696,,,,121.12,3237.5329321623,3072.8432762623,2863.6156845093,,
109.56,2298.8346123695,2399.8546504974,2547.276725769,,,,120.44,3238.025675416,3073.4846246243,2864.9381637573,,
110.24,2299.1922402382,2400.3624820709,2548.3295822144,,,,119.76,3238.5184186697,3074.1311872005,2866.2544631958,,
110.92,2299.5588088036,2400.8703136444,2549.3881607056,,,,119.08,3239.0111619234,3074.7673213482,2867.5522232056,,
111.6,2299.9253773689,2401.3781452179,2550.4581832886,,,,118.4,3239.4960838556,3075.4086697102,2868.8376235962,,
112.28,2300.2919459343,2401.8931293488,2551.5396499634,,,,117.72,3239.9888271093,3076.0448038578,2870.1106643677,,
112.96,2300.6585144997,2402.4081134796,2552.6268386841,,,,117.04,3240.4737490416,3076.6809380055,2871.3775253296,,
113.64,2301.0340237617,2402.9230976105,2553.7254714966,,,,116.36,3240.9664922953,3077.3118579388,2872.63048172,,
114.32,2301.4005923271,2403.4380817413,2554.829826355,,,,115.68,3241.4514142275,3077.9427778721,2873.8726234436,,
115,2301.7671608925,2403.9602184296,2555.9513473511,,,,115,3241.9363361597,3078.5736978054,2875.1054954529,,
115.68,2302.1426701546,2404.4752025604,2557.0785903931,,,,114.32,3242.4212580919,3079.1994035244,2876.3290977478,,
116.36,2302.5181794167,2404.9973392487,2558.211555481,,,,113.64,3242.9061800242,3079.8251092434,2877.534160614,,
117.04,2302.884747982,2405.5266284943,2559.3616867065,,,,112.96,3243.3832806349,3080.4508149624,2878.7392234802,,
117.72,2303.2602572441,2406.0487651825,2560.5232620239,,,,112.28,3243.8682025671,3081.0713064671,2879.9350166321,,
118.4,2303.6357665062,2406.5780544281,2561.6905593872,,,,111.6,3244.3453031778,3081.6917979717,2881.1122703552,,
119.08,2304.0112757683,2407.1073436737,2562.8750228882,,,,110.92,3244.8224037886,3082.3122894764,2882.2895240784,,
119.76,2304.3867850304,2407.6366329193,2564.0652084351,,,,110.24,3245.2995043993,3082.9275667667,2883.4575080872,,
120.44,2304.7712349892,2408.1659221649,2565.2725601196,,,,109.56,3245.77660501,3083.5428440571,2884.6069526672,,
121.12,2305.1467442512,2408.7023639679,2566.491355896,,,,108.88,3246.2537056208,3084.1581213474,2885.7563972473,,
121.8,2305.5222535133,2409.2388057709,2567.7215957642,,,,108.2,3246.7308062315,3084.7681844235,2886.896572113,,
122.48,2305.9067034721,2409.7752475738,2568.9632797241,,,,107.52,3247.2079068422,3085.3782474995,2888.0274772644,,
123.16,2306.2911534309,2410.3116893768,2570.2164077759,,,,106.84,3247.6771861315,3085.9883105755,2889.1491127014,,
123.84,2306.666662693,2410.8552837372,2571.4867019653,,,,106.16,3248.1542867422,3086.5931594372,2890.2614784241,,
124.52,2307.0511126518,2411.3988780975,2572.7684402466,,,,105.48,3248.6235660315,3087.1980082989,2891.3645744324,,
125.2,2307.4355626106,2411.9424724579,2574.0673446655,,,,104.8,3249.0928453207,3087.8028571606,2892.4676704407,,
125.88,2307.8200125694,2412.4932193756,2575.3834152222,,,,104.12,3249.56212461,3088.4024918079,2893.5522270203,,
126.56,2308.2044625282,2413.036813736,2576.7109298706,,,,103.44,3250.0314038992,3089.0021264553,2894.6367835999,,
127.24,2308.5978531837,2413.5875606537,2578.053894043,,,,102.76,3250.492861867,3089.6017611027,2895.7120704651,,
127.92,2308.9823031425,2414.1383075714,2579.4088745117,,,,102.08,3250.9621411562,3090.1961815357,2896.7873573303,,
128.6,2309.3667531013,2414.6962070465,2580.7913208008,,,,101.4,3251.4314204454,3090.7906019688,2897.8441047668,,
129.28,2309.7601437569,2415.2469539642,2582.1829223633,,,,100.72,3251.8928784132,3091.3850224018,2898.9008522034,,
129.96,2310.1535344124,2415.8048534393,2583.5928344727,,,,100.04,3252.354336381,3091.9742286205,2899.9483299255,,
130.64,2310.5379843712,2416.3627529144,2585.0210571289,,,,99.36,3252.8157943487,3092.5686490536,2900.9865379334,,
131.32,2310.9313750267,2416.9278049469,2586.467590332,,,,98.68,3253.2772523165,3093.152641058,2902.0247459412,,
132,2311.3247656822,2417.4928569794,2587.9415893555,,,,98,3253.7387102842,3093.7418472767,2903.0444145203,,
132.68,2311.7181563377,2418.0579090118,2589.4247436523,,,,97.32,3254.200168252,3094.3258392811,2904.0733528137,,
133.36,2312.12048769,2418.6229610443,2590.9353637695,,,,96.64,3254.6538048983,3094.9098312855,2905.0837516785,,
134.04,2312.5138783455,2419.1880130768,2592.473449707,,,,95.96,3255.115262866,3095.4938232899,2906.0941505432,,
134.72,2312.907269001,2419.7602176666,2594.020690918,,,,95.28,3255.5688995123,3096.0726010799,2907.0952796936,,
135.4,2313.3096003532,2420.3324222565,2595.6045532227,,,,94.6,3256.0303574801,3096.65137887,2908.0871391296,,
136.08,2313.7029910088,2420.9046268463,2597.2067260742,,,,93.92,3256.4839941263,3097.2301566601,2909.0789985657,2727.73969,
136.76,2314.105322361,2421.4839839935,2598.8363647461,,,,93.24,3256.9376307726,3097.8037202358,2910.0615882874,2732.4685668945,
137.44,2314.5076537132,2422.0633411407,2600.4943847656,,,,92.56,3257.3912674189,3098.3772838116,2911.044178009,2738.5934448242,
138.12,2314.9099850655,2422.642698288,2602.1789550781,,,,91.88,3257.8370827436,3098.9508473873,2912.0174980164,2743.7350463867,
138.8,2315.3123164177,2423.2220554352,2603.8928222656,,,,91.2,3258.2907193899,3099.5244109631,2912.9815483093,2748.2559204102,
139.48,2315.7146477699,2423.8085651398,2605.6359863281,,,,90.52,3258.7365347147,3100.0927603245,2913.9455986023,2752.3327636719,
140.16,2316.1169791222,2424.3950748444,2607.4157714844,,,,89.84,3259.190171361,3100.6611096859,2914.9003791809,2756.0827636719,
140.84,2316.5282511711,2424.9815845489,2609.2248535156,,,,89.16,3259.6359866858,3101.224244833,2915.8458900452,2759.5690917969,
